x,y,theta,speed,accel,dist,energy,theta_map
2.754830700623733,33.21643392101998,-0.0057789134354255,11.64762666,1.1772659,0.6788801433217763,-3.9613127137319686,3.0546385
2.7270232879947143,32.87489820857962,-0.0029982496805516,11.68847838,1.1758106,0.022476661837673228,-4.222968635069904,3.054239
2.6697372073932524,32.18909233107219,0.0042863564617246,11.72913759,1.1798936,0.2104788537665553,-4.282086526668413,3.0541062
2.629390690093284,31.73001886328732,0.0080413692327686,11.76979689,1.1839766,0.1712706981781872,-4.341511681748996,3.0540182
2.58759884802536,31.269446106623008,0.0076970088103581,11.8104561,1.1307719,0.1340633247210907,-4.177334300805211,3.0539581
2.5339504814755767,30.69166013685623,0.0033906311627072,11.8491579,1.1261446,0.21444983606588902,-4.198824523890733,3.0539068
2.490995338115385,30.227672169905937,-0.0013183203727344,11.8875762,1.12979,0.18047060709820378,-4.252323307797181,3.0538641
2.4490592437273646,29.76202916803816,-0.0061916428274149,11.92599441,1.1334353,0.147921044240335,-4.306080045981408,3.0538301
2.39800841591548,29.177674253990663,-0.0069658408612944,11.96441271,1.0863356,0.23481155962019098,-4.155470200674663,3.0538015
2.358028064880856,28.708433363410727,-0.0044975779157228,12.00111903,1.0786686,0.20597348471862895,-4.160314444343823,3.0537737
2.3180444575212413,28.237701508054627,-0.0003453910833252,12.03745563,1.0819296,0.1784994007795695,-4.208663729979435,3.0537467
2.2770694482442813,27.76556809430274,0.0046534159328076,12.07379214,1.0851907,0.1523751470316819,-4.257229004843414,3.0537207
2.2347501893923187,27.29207081635393,0.0075204722897028,12.11012874,1.0438373,0.12802618736146068,-4.12102002844159,3.0536956
2.1802579268084847,26.69834753577838,0.0058581051242155,12.144978,1.0332962,0.2244260206881451,-4.1096934308707205,3.0536719
2.1359719203501264,26.221836626520336,0.0023473168586618,12.17937717,1.0362187,0.2030851903779357,-4.153435738603218,3.0536495
2.0920532899372453,25.743879367869663,-0.0022654924783984,12.21377634,1.0391413,0.18305685626451274,-4.197360011164467,3.0536284
2.049493474790854,25.264392794762948,-0.0072354483212636,12.24817551,1.0031595,0.16467133903785341,-4.0759779428536715,3.0536086
2.018457318562341,24.903778063869886,-0.0092128514605482,12.28129218,0.9899396,0.026938000572383568,-4.049132983066967,3.0535903
1.9682213612398256,24.30088996785421,-0.0073636391978551,12.31388505,0.9925633,0.1318617167437645,-4.0887492946244475,3.0535735
1.9187642887267025,23.695789065035576,-0.0024836373747602,12.34647801,0.995187,0.23901242259869723,-4.128518348263233,3.0535581
1.8784567936897645,23.21029019597082,0.0022307974119026,12.37907088,0.96419,0.22643338326542126,-4.02202767036787,3.0535442
1.8364762036752125,22.72362496006287,0.0066376352118525,12.41056701,0.9485119,0.21513807312726652,-3.9804850546414525,3.0535319
1.7929615867038096,22.235839278307694,0.0074064588420655,12.44147319,0.950871,0.20496813315847445,-4.016399604908652,3.0535213
1.7481083728188025,21.74687677398902,0.0052450106735046,12.47237928,0.9532302,0.19597623502789163,-4.0524439842655795,3.0535123
1.7026629337152164,21.25667429203144,0.0013206283642405,12.50328546,0.9268231,0.18839543821232604,-3.9605971641496476,3.053505
1.657681543467594,20.76514406286881,-0.0034964187927009,12.53326239,0.9089265,0.18213841469217987,-3.9053227686238783,3.0534994
1.614107486798659,20.27226069451489,-0.0080260410065425,12.56259096,0.911051,0.1770693402418221,-3.937913263731478,3.0534956
1.5718335152694054,19.778049448639536,-0.0089303143646739,12.59191962,0.9131754,0.17317711474601538,-3.970612099637662,3.0534934
1.530680153238797,19.282489562247573,-0.0069090072355659,12.62124819,0.8909616,0.17064614977591283,-3.8929074353951125,3.0534931
1.4899148473226662,18.785651207810638,-0.00312276958663,12.64979781,0.8710985,0.16944234886060205,-3.8249841270652207,3.0534945
1.4484841750660298,18.287636679276734,0.0015616206641359,12.67764876,0.8730143,0.16945343217155098,-3.8545839358074305,3.0534977
1.4052916315647097,17.788601924003263,0.006575744197771,12.705499710000002,0.8749301,0.1705154422086174,-3.8842770624869987,3.0535026
1.3599941018933668,17.288554190478045,0.0093236274500048,12.73335066,0.8565164,0.17265668616915944,-3.8200089141780476,3.0535094
1.3128639782380838,16.787484533733473,0.0084844634874196,12.76055658,0.8349441,0.175911426709679,-3.740602208553685,3.053518
1.2644360764980298,16.285362106767092,0.0053790633091351,12.78702162,0.836674,0.18033822915879835,-3.7675101182889357,3.0535283
1.215748163164471,15.782147439527558,0.0010363567230413,12.81348666,0.8384038,0.18596750802697806,-3.794496483083155,3.0535404
1.1679912660243708,15.27774161230675,-0.0038304964185144,12.83995161,0.8234071,0.1927724388961421,-3.7428122428053054,3.0535542
1.1216464167897586,14.772067416135403,-0.0065670968057189,12.86589033,0.8003812,0.2007230919721432,-3.6531350112153667,3.0535698
1.0765996897369854,14.265149120817796,-0.0058003818697766,12.891053520000002,0.8019451,0.20977956089222835,-3.677615768193605,3.0535871
1.0324590934449085,13.757042313970237,-0.0027727657213233,12.9162168,0.8035089,0.21993154846823568,-3.7021634352616695,3.0536061
0.988303053676269,13.247885116513745,0.0015337234551155,12.94138008,0.7915622,0.23111160222429075,-3.6621152531711627,3.0536268
0.9431635798030285,12.73773531546244,0.00584667200644,12.96612144,0.7673293,0.24336068457839374,-3.56338867826993,3.0536491
0.9086597666034916,12.354476024798895,0.0072180263999003,12.99006045,0.7687447,0.12835949910128203,-3.5856786536719105,3.053673
0.8617679588754734,11.842583615059372,0.0061203441511316,13.01399937,0.7701601,0.14262109388856734,-3.608026476107811,3.0536984
0.8261919865536531,11.458019436314524,0.0040482416191621,13.03793838,0.7609179,0.02997989744354199,-3.578621611096814,3.0537255
0.7671850998921952,10.81573380736617,-0.0011104142281284,13.061547,0.7357096,0.17421355032496152,-3.4720367372360075,3.053754
0.721398952077999,10.300598483772609,-0.0056656724787713,13.08433293,0.7369919,0.19150509737125515,-3.492347641090894,3.0537839
0.6770030346227193,9.784316857350362,-0.0073314676772591,13.10711895,0.7382743,0.20978793402020818,-3.512708392199815,3.0538153
0.6338795399494326,9.26692245430236,-0.0060057878228574,13.12990488,0.7314189,0.22901353334445496,-3.4929595148914694,3.0538482
0.5914432086891355,8.748518134961566,-0.0028161931774188,13.15244034,0.7054452,0.24912643266960005,-3.3796405140244863,3.0538822
0.5594559879256776,8.359085618805157,0.0003029102928619,13.17413898,0.706608,0.13996868400970186,-3.398160966839653,3.0539175
0.5156919321863538,7.839055532413976,0.0050308896908933,13.19583771,0.7077709,0.16199827467549782,-3.416724549207112,3.0539539
0.4702861808337334,7.318180749375911,0.0077504552193577,13.21753635,0.7030169,0.1850218730602019,-3.4056938407834405,3.0539915
0.4233615414314546,6.796475206493116,0.0071293473058926,13.23905409,0.6764606,0.20889936319693903,-3.286658304359104,3.0540303
0.3753147066984658,6.27395725317111,0.0043593616281126,13.25972601,0.677516,0.23376230569572568,-3.3035583225075817,3.0540703
0.3390871154012839,5.881496825875828,0.0015057529274656,13.28039793,0.6785714,0.12815223207191986,-3.320494763268261,3.0541114
0.2914519621298059,5.357351791328791,-0.0031240253446202,13.30106985,0.6756699,0.15469142673519864,-3.317333322246425,3.0541538
0.2452721911086766,4.832132242331237,-0.006795687483437,13.32162153,0.6486781,0.18198306556649793,-3.1934435225507234,3.0541966
0.2114883278563607,4.437532507230623,-0.0074454374036662,13.34132244,0.6496367,0.07826226146478642,-3.2088744902594795,3.0542395
0.1566529862792578,3.778641077719522,-0.004705792505559,13.36102335,0.6505953,0.2393798018650198,-3.224336827115978,3.0542826
0.1240899779193473,3.382613624166239,-0.0021060797959159,13.38072417,0.6486497,0.13691867206055244,-3.2249023372045142,3.0543259
0.0801448730863554,2.853824209572357,0.0023001378969603,13.40033733,0.6125212,0.16759544456018122,-3.052968880426706,3.0543712
0.0346840372930582,2.324270800987176,0.0064834740465056,13.4188317,0.613366,0.19922534468584877,-3.0674438812274394,3.0544194
-0.0122634710019463,1.7940063616979594,0.007428955169,13.43732607,0.6142108,0.2317301249267792,-3.0819471564166885,3.0544706
-0.048422939700599,1.3958554748748764,0.0066357523033905,13.45582053,0.6061849,0.13171039169920912,-3.0515163439093653,3.0545247
-0.0973849865044863,0.8643262462009818,0.003571546122619,13.47404832,0.2144121,0.16560460390047888,-1.0822806386846735,3.0545747
-0.1462804817070944,0.3319361226995964,-0.0005193631369104,13.4804898,0.2145146,0.20040610047780819,-1.0951920539581859,3.0546162
-0.1939731583336986,-0.2013564442238985,-0.0049294049692337,13.48693119,0.2146171,0.2360036084841662,-1.108115305508635,3.0546492
-0.2288553559025872,-0.6018603764309012,-0.0066874243320168,13.49337258,0.2147195,0.13826183738761816,-1.1209716620947416,3.054674
-0.2741459374429713,-1.136522806758151,-0.0060026019311877,13.49981406,0.0061863,0.17489743854839093,-0.032622809895032266,3.0547442
-0.3184150892358883,-1.6718541187246312,-0.003117298553038,13.49999955,1.4e-06,0.2121358163837571,-7.4893793590000026e-06,3.0549007
-0.3625599596171966,-2.207699864162044,0.0011015435868323,13.49999964,1.4e-06,0.24991476219797668,-7.596975546160002e-06,3.0551434
-0.3962462512871411,-2.609813111649625,0.0049691457436582,13.49999964,1.4e-06,0.15357144835216258,-7.70302077776e-06,3.0554723
-0.4420737514495596,-3.146195834149003,0.0079083421433093,13.49999973,2.2e-06,0.19206825981160405,-1.216363563756e-05,3.0560773
-0.4771666603352783,-3.548617533305236,0.0086622112982364,13.49999973,2.3e-06,0.09616168634008547,-1.2778093540739987e-05,3.0571321
-0.5247010089991802,-4.085334164851578,0.0073346411711294,13.49999982,2.3e-06,0.13513548757017085,-1.2839658140760003e-05,3.0586368
-0.5723762705831413,-4.6222485156776765,0.0047750731937481,13.49999991,2.3e-06,0.17435981193913183,-1.290122360098e-05,3.0605914
-0.6191496275408803,-5.159414989280712,0.0016105272777465,13.5,-5e-06,0.21383179345405393,2.8049990649999995e-05,3.0629489
-0.6529615563999772,-5.562493018062403,-0.0008747418346192,13.49999982,-6.1e-06,0.11897644089491687,3.422099498092004e-05,3.0656577
-0.6852088101343484,-5.965768141548414,-0.0035059130819772,13.49999964,-6.1e-06,0.028101515202273247,3.422099908744001e-05,3.0687177
-0.7350325404514015,-6.638323253593296,-0.0056052071335933,13.49999946,-6.1e-06,0.19812779288536986,3.422100547536001e-05,3.0721289
-0.771828302296355,-7.17668113473299,-0.0034795464227816,13.49999928,-0.4091489,0.23777609255356277,2.295325971691091,3.075775
-0.7979916351043793,-7.580590834075787,-0.0003411671944204,13.48772265,-0.501275,0.14329946100480312,2.835169564089774,3.0794991
-0.8318838476621474,-8.119162708017317,0.0052868390275152,13.47266646,-0.5007151,0.18290077249756131,2.8601983463746135,3.0833003
-0.8655137594323186,-8.657483389639761,0.0107116334478733,13.45761036,-0.5001552,0.2224742057045292,2.8851639037817582,3.0871784
-0.8906488941506694,-9.060990729107797,0.0133764849633109,13.44255417,-3.9850589,0.1290868022542641,23.21235700842505,3.091124
-0.9242970662881046,-9.59850079299267,0.0143616131957961,13.32198414,-5.0273171,0.1684497399707653,31.550325152297674,3.0951232
-0.9576691997815344,-10.133988150296618,0.0139636260266877,13.16830527,-4.9689869,0.2062419452282214,34.04022387154561,3.0991757
-0.9898828485168264,-10.665480409598985,0.0125020447550043,13.01462649,-4.9106567,0.24033892688689282,36.46306941334137,3.1032816
-1.0126433848477765,-11.060722360687205,0.0111360815008332,12.86094771,-5.5098995,0.1462875296555696,43.79839143569237,3.1075758
-1.0401381694251273,-11.582924347758563,0.0073890645844089,12.68629956,-5.7052801,0.1717010632622713,48.72111575410182,3.112326
-1.0630769878650477,-12.098327922551125,0.0015496383722656,12.50288775,-5.6221956,0.19010470111750674,51.516444274496074,3.1175395
-1.079855508411944,-12.606776162979564,-0.0069328232719809,12.31947594,-5.5391111,0.20067063292528745,54.20818201396541,3.1232162
-1.089012960426191,-13.108144284259325,-0.0171486168330541,12.136064220000002,-5.3410377,0.20281460277740457,53.25743649869047,3.1294406
-1.0897391471029043,-13.60228435553469,-0.0262837392381274,11.95654698,-5.1996999,0.1960859873995701,52.01851752542109,3.1364181
-1.0807409965016963,-14.08999827534716,-0.0343829560077432,11.77915221,-5.1219773,0.1807001396224362,51.368177931416035,-3.1390271
-1.0614341662201103,-14.570693527371406,-0.0428538957669021,11.60175753,-5.0442548,0.1561442673949037,50.71397704959896,-3.1305244
-1.0236874008365844,-15.160042326281683,-0.0498490584147724,11.42436285,-4.9270064,0.23109646071379994,49.22821182497457,-3.1213592
-0.983458738340491,-15.623269393887776,-0.0517196167933864,11.24839098,-4.822955,0.19107392144734694,47.686786146083094,-3.1118048
-0.9357409746757468,-16.07892180728317,-0.0501008609713835,11.0734272,-4.7473481,0.14700590657728094,46.42739788993361,-3.1018767
-0.8686374185242648,-16.638040697267698,-0.0417382806097295,10.89846342,-4.6717412,0.21407353702137913,45.18431425927516,-3.0915751
-0.8117334527383148,-17.078856817290156,-0.0303995087482165,10.72349973,-4.5641619,0.17172063263628,43.72561230470912,-3.0809254
-0.7415403096406885,-17.62130112230754,-0.0094451490787434,10.5497631,-4.4602264,0.2285587732736261,42.34007022911808,-3.0699891
-0.6767060741515599,-18.153907522953457,0.0130570796163957,10.37717307,-4.386657,0.2716041277018658,41.239491822097456,-3.0587677
-0.6314220406305243,-18.573149665115896,0.0325358941794188,10.20458304,-4.3130877,0.21139222349220377,40.152405022301785,-3.0472612
-0.5844012792504428,-19.089830425647943,0.0501056301544702,10.0319931,-4.2117966,0.2233628642564737,38.84817744367912,-3.0355094
-0.5473465714441854,-19.598421514900515,0.0584703717184373,9.86054139,-4.1043751,0.22096130797557487,37.50502906142785,-3.0236348
-0.5175887053584914,-20.099834195612548,0.0579303340878809,9.69054471,-4.033,0.20850023468240308,36.48466757528783,-3.0116441
-0.4906764342737419,-20.592195987419306,0.051324943342323,9.52054794,-3.9616249,0.18970364540144413,35.477339731350426,-2.9995376
-0.4612096469256065,-21.075578536016984,0.0386122839497645,9.35055117,-3.8718503,0.17046769407103832,34.33969308134937,-2.9873629
-0.4144149584106144,-21.643477025402397,0.0139769971311399,9.18136593,-3.7690894,0.24560651740357636,33.10998278529196,-2.9753008
-0.360980570773068,-22.105830296121344,-0.0059610580329,9.01362105,-3.6995928,0.22098832961181689,32.1671048529563,-2.9633658
-0.2749210602430555,-22.64678111441663,-0.0270768424668648,8.84587626,-3.6300961,0.27018458302669773,31.2367135683157,-2.9515576
-0.18473446417442,-23.08592125108117,-0.0375787627253315,8.67813147,-3.5453864,0.2218627457086084,30.20603926707584,-2.9397812
-0.0798273969097858,-23.514460631463965,-0.0398838985101305,8.51111037,-3.447195,0.16364499215215328,29.08758350782723,-2.9272811
0.083159476843612,-24.09946972916511,-0.0188752850694269,8.34551064,-3.3794644,0.24791369194701024,28.221758813469975,-2.9138592
0.2281869714907753,-24.58738435766657,0.0061324502192879,8.179910820000002,-3.3117338,0.2506480580719989,27.367732283135567,-2.8994681
0.3719261046799557,-25.06619599967602,0.0212200545990275,8.179910820000002,-3.3117338,0.24687649992163335,25.039389142183936,-2.8840241
0.5120073075959835,-25.537091779564435,0.0317236098032973,8.01431109,-3.2476105,0.23410353663435224,24.30212772995716,-2.8679335
0.6506429047315889,-25.999514109031317,0.0267391843474228,7.84852524,-3.1844995,0.21598877002608965,23.584549269361883,-2.8514243
0.7923212067820882,-26.452062227531776,0.0109986369033053,7.68248784,-3.1164105,0.19240259285535774,22.843142245640216,-2.8344375
0.9654887539162292,-26.96600749655191,-0.003149913563294,7.516450529999999,-3.0483214,0.23515915886604402,22.12126297244415,-2.8167562
1.1230819787342077,-27.39369111585663,-0.0101266543030691,7.35041313,-2.995238,0.1859545888321779,21.534826699154475,-2.7983456
1.314986370305671,-27.87904569014914,-0.0005265214481202,7.1835300900000005,-2.9350339,0.20684426475931106,20.914086870956595,-2.7795602
1.510550568830283,-28.34955081466588,0.0178516681941314,7.01615187,-2.8658407,0.2200462002189834,20.242885788591252,-2.7603703
1.6800336642218905,-28.742678887274163,0.0271572373829189,6.84877365,-2.7966475,0.14992350391608822,19.578124388113412,-2.7404662
1.9079513586385075,-29.252008066391117,0.0285241731456626,6.68139543,-2.7290144,0.2051196076264304,18.930043396858263,-2.719594
2.1105906024920964,-29.683698816326416,0.0160516638687433,6.68139543,-2.7290144,0.18278878041240246,17.04708550227163,-2.6981267
2.347345168218596,-30.16060006609406,0.0150473445215045,6.513920280000001,-2.6599588,0.21884552129359472,16.446494061211236,-2.6761358
2.590235832969031,-30.61927839777444,0.0147834083682251,6.34643118,-2.590674,0.24045970594267507,15.844318040954784,-2.6533021
2.8086762671839867,-31.007066351910478,0.019163632708802,6.178942080000001,-2.5213891,0.18721424206537643,15.246248629015932,-2.6288891
3.095884386752896,-31.485543411789177,0.0212442753551212,6.01145298,-2.4341271,0.24624120199150348,14.550299602011819,-2.60312
3.35684572600328,-31.89279097252085,0.0269445031577246,5.8452093000000005,-2.3655446,0.22854829092525122,13.96576635358737,-2.5762544
3.5887624581207205,-32.23543370282662,0.037994222683108,5.67898866,-2.2973052,0.1525112025847735,13.392232600635182,-2.5483594
3.9267255366073135,-32.70166129267133,0.0268750798239506,5.51276811,-2.2290658,0.23475105896366477,12.828707492207172,-2.5174148
4.238031729505628,-33.09614047352717,0.0275148624656404,5.34654747,-2.0927305,0.2360937238480331,11.888487119614824,-2.4837827
4.554542815603093,-33.468690329281664,0.0392501030637785,5.18564646,-2.0032893,0.2139185809238267,11.191594168406056,-2.4480265
4.874463092749056,-33.820716462326565,0.0133000491892116,5.18564646,-2.0032893,0.21109342750413723,9.807652109340532,-2.4131356
5.197784136407306,-34.151802335749345,0.0112453108261816,5.026799700000001,-1.9409701,0.18549163677597083,9.314952304370253,-2.3757108
5.598461120330422,-34.529421862069064,0.0101533210130304,4.86795294,-1.8786508,0.23462482193340983,8.834299310025076,-2.3360229
6.000466562989029,-34.88005239694073,0.0171731142748595,4.70910627,-1.8018051,0.2534367240837036,8.298785627295679,-2.2944242
6.367296320952555,-35.176678692356006,0.0270985166285418,4.551551910000001,-1.4817217,0.230699991303245,6.70692113062995,-2.2544368
6.768969380428777,-35.47906429833081,0.0411155248674369,4.417778070000001,-1.4375231,0.24044394683627437,6.2771680621531205,-2.2153548
7.171092603592594,-35.7560261152589,0.0339249540630287,4.28400432,-1.3933246,0.22958450858511012,5.861539259876848,-2.1754047
7.611076395935582,-36.02947633512255,0.038512173411563,4.15023048,-1.3491261,0.24486932659122268,5.460035728593848,-2.1338043
8.048654431329801,-36.27737946077468,0.0527087002350299,4.01645673,-1.3683271,0.24416157495784907,5.326457696322715,-2.0897266
8.48326565706381,-36.49726505002843,0.0632121812195231,3.876066,-1.3957058,0.22429648984406408,5.389986013388503,-2.0429032
8.948374758599353,-36.70770039136436,0.1061241279980952,3.72742263,-1.3411355,0.2311674251911509,5.179273942154091,-1.9939997
9.408838708118344,-36.88344987074582,-0.0147550586461436,3.72742263,-1.3411355,0.22938082831241685,4.43373051629354,-1.9421036
9.900138196523622,-37.037859727613146,0.0323939923288632,3.57877935,-1.2865652,0.2587354795479532,4.253351498053446,-1.8861961
10.380603930065156,-37.16037271046507,0.0502605996496367,3.43013598,-0.7247985,0.25495999177992607,2.376251182674486,-1.8216819
10.884766051795726,-37.24105784013653,0.0199649764355629,3.34348758,0.2441341,0.2533116254310052,-0.7287081284220456,-1.7458353
11.319033025848706,-37.27435965999319,0.1514594553330522,3.37292199,0.246274,0.2023787540437056,-0.5558621313382675,-1.6605466
11.822832164031636,-37.2687003002908,0.125140631030819,3.4023564,0.2484138,0.23384246595078323,-0.37990113513894946,-1.5631384
12.323341427803896,-37.18797980023671,0.0792715682431104,3.4317909,1.3654543,0.27364509089036265,-1.4462214980667125,-1.4452953
